29.168797456032188, 155.12465373961277
29.302900902070217, 166.7590027700844
29.430462716594196, 175.48476454293814
29.550392627685117, 190.02770083102587
29.692127977156208, 208.93351800554228
29.82296060743721, 207.47922437673333
29.953793237718216, 201.6620498614975
30.084625867999222, 214.75069252077628
30.215458498280224, 216.20498614958524
30.34629112856123, 220.5678670360121
30.477123758842232, 216.20498614958524
30.60795638912324, 207.47922437673333
30.738789019404244, 219.11357340720315
30.869621649685246, 229.29362880886583
31.000454279966252, 274.3767313019398
31.125835550652216, 310.24930747922554
31.213057304172885, 376.1772853185612
31.213057304172885, 335.45706371191227
31.26211954052826, 424.16897506925307
31.392952170809266, 438.7119113573426
31.49107664352002, 448.8919667590035
31.523784801090272, 500.2770083102496
31.58102407683821, 560.8725761772857
31.63281199299111, 621.4681440443237
31.687325588941526, 685.9418282548486
31.7363878252969, 771.7451523545715
31.756012719839056, 735.6786703601119
31.79245895256019, 823.2686980609433
31.801804140437405, 891.9667590027711
31.818158219222532, 940.4432132963993
31.834512298007656, 1031.5789473684235
31.834512298007656, 990.8587257617746
31.857875267700692, 1096.6759002770104
31.867220455577908, 1167.3130193905836
31.89992861314816, 1306.9252077562342
31.89992861314816, 1260.3878116343494
31.89992861314816, 1215.7894736842118
31.916282691933283, 1362.1883656509708
31.916282691933283, 1400.0000000000018
31.93263677071841, 1485.3185595567884
31.93263677071841, 1438.7811634349055
31.93263677071841, 1586.1495844875353
31.940813810110974, 1539.6121883656524
31.948990849503534, 1621.0526315789484
31.965344928288662, 1865.3739612188383
31.965344928288662, 1811.0803324099743
31.965344928288662, 1764.5429362880895
31.965344928288662, 1718.0055401662066
31.973521967681226, 1666.1357340720242
31.998053085858913, 2008.8642659279794
31.998053085858913, 1962.3268698060965
31.998053085858913, 1917.728531855957
32.01440716464404, 2103.8781163434924
32.01440716464404, 2058.7950138504166
32.01440716464404, 2231.8559556786713
32.02141605555195, 2167.867036011081
32.03076124342917, 2268.6980609418297
32.037302874943215, 2330.747922437675
32.04711532221429, 2586.7036011080345
32.04711532221429, 2540.1662049861516
32.04711532221429, 2493.628808864267
32.04711532221429, 2447.091412742384
32.04711532221429, 2400.554016620499
32.063469400999416, 2649.238227146816
32.07982347978454, 2848.47645429363
32.07982347978454, 2801.939058171747
32.07982347978454, 2755.4016620498624
32.07982347978454, 2708.8642659279794
32.096177558569664, 3372.022160664821
32.096177558569664, 3315.7894736842118
32.096177558569664, 3269.252077562327
32.096177558569664, 3222.714681440444
32.096177558569664, 3176.1772853185594
32.096177558569664, 3129.6398891966764
32.096177558569664, 3083.1024930747935
32.096177558569664, 3036.565096952909
32.096177558569664, 2990.027700831026
32.096177558569664, 2943.490304709141
32.096177558569664, 2898.8919667590035
32.12888571613992, 3796.6759002770095
32.12888571613992, 3750.1385041551257
32.12888571613992, 3703.601108033242
32.12888571613992, 3657.063711911358
32.12888571613992, 3610.526315789475
32.12888571613992, 3563.9889196675904
32.12888571613992, 3517.4515235457075
32.12888571613992, 3470.9141274238245
32.12888571613992, 3424.37673130194
32.13542734765397, 3857.174515235459
32.16159387371017, 4382.271468144046
32.16159387371017, 4335.734072022162
32.16159387371017, 4289.196675900278
32.16159387371017, 4242.659279778395
32.16159387371017, 4196.121883656511
32.16159387371017, 4149.584487534627
32.16159387371017, 4103.047091412744
32.16159387371017, 4056.50969529086
32.16159387371017, 4009.972299168977
32.16159387371017, 3963.434903047093
32.16159387371017, 3918.8365650969536
32.16159387371017, 4483.1024930747935
32.16977091310273, 4436.56509695291
32.177947952495295, 4797.229916897508
32.177947952495295, 4750.692520775624
32.177947952495295, 4704.15512465374
32.177947952495295, 4657.617728531857
32.177947952495295, 4611.080332409973
32.177947952495295, 4564.54293628809
32.177947952495295, 4518.005540166206
32.194302031280415, 5440.9972299168985
32.194302031280415, 5394.459833795016
32.194302031280415, 5347.922437673132
32.194302031280415, 5301.385041551248
32.194302031280415, 5254.847645429364
32.194302031280415, 5208.31024930748
32.194302031280415, 5161.772853185597
32.194302031280415, 5115.2354570637135
32.194302031280415, 5068.69806094183
32.194302031280415, 5022.160664819946
32.194302031280415, 4975.623268698062
32.194302031280415, 4929.085872576179
32.194302031280415, 4882.548476454295
32.194302031280415, 4837.950138504156
32.21065611006554, 5507.894736842107
32.22701018885067, 5848.19944598338
32.22701018885067, 5801.6620498614975
32.22701018885067, 5755.124653739614
32.22701018885067, 5708.58725761773
32.22701018885067, 5662.049861495846
32.22701018885067, 5615.512465373962
32.22701018885067, 5568.975069252079
32.2433642676358, 6172.991689750694
32.2433642676358, 6126.45429362881
32.2433642676358, 6079.916897506926
32.2433642676358, 6033.379501385042
32.2433642676358, 5986.842105263158
32.2433642676358, 5940.304709141275
32.2433642676358, 5898.1301939058185
32.25037315854371, 6238.227146814405
32.259718346420925, 6449.307479224378
32.259718346420925, 6402.770083102494
32.259718346420925, 6356.23268698061
32.259718346420925, 6309.695290858726
32.276072425206046, 6501.662049861497
32.39055097670193, 6513.781163434904
32.39055097670193, 6460.941828254849
32.39055097670193, 6414.404432132965
32.39055097670193, 6367.867036011081
32.39055097670193, 6321.329639889197
32.39055097670193, 6274.792243767314
32.39709260821598, 6083.988919667591
32.40690505548705, 6228.25484764543
32.40690505548705, 6181.7174515235465
32.40690505548705, 6135.180055401663
32.42325913427218, 5960.664819944599
32.42325913427218, 5914.127423822715
32.42325913427218, 5867.590027700832
32.42325913427218, 5821.052631578948
32.429800765786226, 6023.490304709142
32.4396132130573, 5768.698060941829
32.4396132130573, 5722.160664819946
32.4396132130573, 5675.623268698062
32.4396132130573, 5629.085872576178
32.4396132130573, 5582.548476454294
32.4396132130573, 5536.0110803324105
32.4396132130573, 5489.473684210528
32.4396132130573, 5442.936288088644
32.4396132130573, 5396.39889196676
32.45596729184243, 5347.922437673132
32.45596729184243, 5301.385041551248
32.45596729184243, 5254.847645429364
32.45596729184243, 5208.31024930748
32.45596729184243, 5161.772853185597
32.46250892335648, 4877.5069252077565
32.472321370627554, 5114.26592797784
32.472321370627554, 5067.728531855957
32.472321370627554, 5021.191135734073
32.472321370627554, 4974.653739612189
32.472321370627554, 4928.116343490306
32.48049841002012, 4590.720221606649
32.48867544941268, 4832.132963988921
32.48867544941268, 4785.595567867037
32.48867544941268, 4739.058171745153
32.48867544941268, 4692.520775623269
32.48867544941268, 4645.983379501386
32.52138360698293, 4545.152354570639
32.52138360698293, 4498.614958448755
32.52138360698293, 4452.077562326871
32.52138360698293, 4405.540166204987
32.52138360698293, 4359.002770083104
32.52138360698293, 4312.46537396122
32.52138360698293, 4265.927977839337
32.52138360698293, 4219.390581717453
32.52138360698293, 4172.853185595569
32.52138360698293, 4126.315789473686
32.52138360698293, 4079.778393351802
32.52138360698293, 4033.2409972299183
32.52138360698293, 3986.7036011080345
32.53773768576806, 3936.28808864266
32.53773768576806, 3889.7506925207763
32.53773768576806, 3843.2132963988934
32.53773768576806, 3796.6759002770095
32.53773768576806, 3750.1385041551257
32.53773768576806, 3194.5983379501395
32.55409176455318, 3695.8448753462617
32.55409176455318, 3649.307479224378
32.55409176455318, 3602.770083102495
32.55409176455318, 3556.232686980611
32.55409176455318, 3509.6952908587264
32.55409176455318, 3463.1578947368434
32.55409176455318, 3416.6204986149605
32.55409176455318, 3370.083102493076
32.55409176455318, 3323.545706371193
32.55409176455318, 3277.008310249308
32.55409176455318, 3230.470914127425
32.58679992212343, 3079.224376731303
32.58679992212343, 3032.68698060942
32.58679992212343, 2986.1495844875353
32.58679992212343, 2943.490304709141
32.58679992212343, 2895.013850415513
32.59334155363749, 3142.825484764544
32.61950807969369, 2788.36565096953
32.61950807969369, 2604.15512465374
32.62768511908625, 2842.659279778394
32.635862158478815, 2735.041551246539
32.635862158478815, 2688.504155124654
32.635862158478815, 2641.966759002771
32.64403919787137, 2448.545706371193
32.652216237263936, 2497.5069252077574
32.6603932766565, 2551.8005540166214
32.668570316049056, 2394.736842105265
32.668570316049056, 2348.1994459833804
32.668570316049056, 2301.6620498614975
32.668570316049056, 2255.1246537396128
32.668570316049056, 2208.58725761773
32.684924394834184, 2152.3545706371206
32.684924394834184, 2105.817174515236
32.684924394834184, 2059.279778393353
32.70127847361931, 2010.8033240997247
32.70127847361931, 1964.26592797784
32.70127847361931, 1917.728531855957
32.71763255240444, 1865.3739612188383
32.71763255240444, 1818.8365650969536
32.71763255240444, 1774.238227146816
32.750340709974694, 1652.077562326871
32.750340709974694, 1605.5401662049862
32.750340709974694, 1559.0027700831033
32.75688234148874, 1714.127423822716
32.766694788759814, 1507.6177285318572
32.78304886754494, 1460.1108033240998
32.807579985722626, 1405.8171745152358
32.84192355117139, 1342.9916897506937
32.887714971769746, 1281.329639889198
32.89752741904082, 1213.8504155124665
32.89752741904082, 1167.3130193905836
32.91388149782594, 1116.8975069252083
32.91388149782594, 1070.3601108033254
32.920423129339994, 1019.5567867036025
32.946589655396195, 938.5041551246559
32.9727561814524, 971.8559556786713
33.082873645272244, 962.7423822714682
33.159192679602825, 906.994459833797
33.18644947757804, 880.3324099723013
33.322733467454086, 893.9058171745164
33.45356609773509, 905.540166204988
33.577389837108186, 896.398891966759
33.656823934064505, 981.9944598337952
33.76429359465247, 1023.8227146814406
33.76429359465247, 986.9806094182841
33.7806476734376, 1085.8725761772857
33.80517879161529, 1155.678670360112
33.82970990979298, 1202.2160664819949
33.8460639885781, 1260.3878116343494
33.86241806736323, 1359.279778393353
33.86241806736323, 1318.559556786704
33.89512622493348, 1475.623268698062
33.89512622493348, 1421.329639889198
33.940917645531826, 1547.756232686983
33.96054254007398, 1510.5263157894751
33.967084171588034, 1618.7257617728537
33.97689661885911, 1690.8587257617746
33.99325069764423, 1745.1523545706386
33.99325069764423, 1783.9335180055405
34.02595885521448, 1923.5457063711929
34.02595885521448, 1869.2520775623289
34.02595885521448, 1822.714681440444
34.05866701278474, 2024.3767313019398
34.05866701278474, 1977.8393351800569
34.065208644298785, 2086.426592797785
34.091375170354986, 2241.5512465373977
34.091375170354986, 2195.0138504155148
34.091375170354986, 2148.47645429363
34.091375170354986, 2342.3822714681446
34.09955220974755, 2295.8448753462617
34.10772924914011, 2377.2853185595577
34.124083327925234, 2559.5567867036025
34.124083327925234, 2513.0193905817177
34.124083327925234, 2466.481994459835
34.124083327925234, 2425.761772853186
34.14043740671036, 2626.454293628809
34.15679148549549, 2691.412742382272
34.17314556428062, 2787.3961218836575
34.17314556428062, 2742.3130193905836
34.18015445518853, 2852.63157894737
34.189499643065744, 2924.09972299169
34.205853721850865, 2979.362880886427
34.205853721850865, 3017.174515235458
34.22220780063599, 3149.030470914129
34.22220780063599, 3102.4930747922444
34.22220780063599, 3055.9556786703615
34.22220780063599, 3249.861495844876
34.23038484002855, 3203.324099722993
34.23856187942111, 3284.764542936289
34.25491595820624, 3467.036011080332
34.25491595820624, 3420.4986149584493
34.25491595820624, 3373.9612188365663
34.25491595820624, 3331.301939058172
34.27127003699137, 3533.9335180055405
34.287624115776495, 3920.775623268699
34.287624115776495, 3874.238227146815
34.287624115776495, 3827.700831024931
34.287624115776495, 3781.1634349030473
34.287624115776495, 3734.6260387811644
34.287624115776495, 3688.0886426592806
34.287624115776495, 3641.5512465373968
34.287624115776495, 3595.013850415513
34.287624115776495, 4017.728531855957
34.30724901031864, 3981.6620498614966
34.32033227334674, 4331.855955678671
34.32033227334674, 4285.3185595567875
34.32033227334674, 4238.781163434904
34.32033227334674, 4192.243767313021
34.32033227334674, 4145.706371191137
34.32033227334674, 4099.168975069253
34.32033227334674, 4052.6315789473692
34.3268739048608, 4394.681440443214
34.33668635213187, 4558.725761772854
34.33668635213187, 4512.188365650971
34.33668635213187, 4465.650969529087
34.35304043091699, 4621.260387811635
34.36939450970212, 4960.110803324101
34.36939450970212, 4913.573407202217
34.36939450970212, 4867.036011080333
34.36939450970212, 4820.498614958449
34.36939450970212, 4773.961218836566
34.36939450970212, 4727.4238227146825
34.36939450970212, 4680.886426592799
34.385748588487246, 5045.429362880888
34.385748588487246, 4998.891966759004
34.40210266727237, 5092.4515235457075
34.409111558180285, 5154.570637119114
34.431540009085595, 5278.8919667590035
34.43481082484263, 5224.792243767314
34.46751898241287, 5425.484764542937
34.46751898241287, 5378.947368421053
34.46751898241287, 5332.40997229917
34.46751898241287, 5553.462603878117
34.47452787332078, 5488.64265927978
34.51658121876825, 5175.346260387812
34.53293529755338, 5233.518005540167
34.53838665714842, 5293.628808864267
34.555831007852554, 5109.030470914128
34.555831007852554, 4992.686980609418
34.56564345512363, 5044.459833795015
34.57382049451619, 4800.138504155126
34.581997533908755, 4948.47645429363
34.581997533908755, 4901.939058171746
34.581997533908755, 4855.401662049862
34.598351612693875, 4762.326869806095
34.598351612693875, 4715.789473684212
34.598351612693875, 4669.252077562328
34.598351612693875, 4622.714681440444
34.598351612693875, 4576.17728531856
34.598351612693875, 4529.639889196676
34.598351612693875, 4483.1024930747935
34.614705691479, 4428.8088642659295
34.614705691479, 4382.271468144046
34.614705691479, 4335.734072022162
34.614705691479, 4289.196675900278
34.614705691479, 4244.5983379501395
34.62124732299306, 4079.390581717452
34.63105977026413, 4128.25484764543
34.63651112985917, 4186.426592797785
34.639236809656694, 3901.385041551248
34.64741384904926, 3951.8005540166223
34.65395548056331, 4013.0747922437686
34.67194496722695, 3518.9058171745164
34.680122006619506, 3850.9695290858735
34.680122006619506, 3804.4321329639897
34.680122006619506, 3757.894736842106
34.680122006619506, 3711.357340720222
34.680122006619506, 3664.819944598338
34.680122006619506, 3618.2825484764553
34.680122006619506, 3571.7451523545715
34.69647608540463, 3406.925207756234
34.69647608540463, 3360.3878116343494
34.70192744499967, 3463.1578947368434
34.712830164189754, 3311.911357340721
34.712830164189754, 3265.3739612188383
34.712830164189754, 3218.8365650969536
34.712830164189754, 3172.2991689750706
34.712830164189754, 3125.7617728531877
34.72918424297488, 2999.7229916897522
34.72918424297488, 2953.1855955678675
34.734635602569924, 3055.9556786703615
34.737361282367445, 2577.9778393351808
34.74553832176001, 2908.58725761773
34.74553832176001, 2862.049861495845
34.74553832176001, 2815.512465373962
34.74553832176001, 2768.9750692520774
34.74553832176001, 2722.4376731301945
34.74553832176001, 2675.9002770083116
34.74553832176001, 2629.362880886427
34.778246479330264, 2454.847645429363
34.78478811084432, 2516.8975069252083
34.78478811084432, 2408.6980609418297
34.81095463690051, 2301.6620498614975
34.819131676293075, 2354.0166204986162
34.82730871568563, 2202.770083102494
34.84366279447076, 2245.4293628808864
34.84366279447076, 2160.1108033241017
34.84366279447076, 2113.573407202217
34.87091959244597, 2053.462603878117
34.89272503082614, 1984.6260387811653
34.90907910961127, 1931.3019390581721
34.90907910961127, 1886.7036011080345
34.94178726718152, 1780.05540166205
34.949964306574074, 1833.379501385043
34.974495424751765, 1718.0055401662066
34.974495424751765, 1671.4681440443237
35.02355766110715, 1628.3240997229932
35.05299500292037, 1571.0249307479244
35.088973976247644, 1516.343490304711
35.09715101564021, 1421.8144044321343
35.10532805503277, 1473.6842105263167
35.1216821338179, 1309.833795013852
35.14457784411708, 1360.4432132964012
35.17728600168732, 1261.5512465373977
35.22307742228568, 1198.7257617728555
35.252514764098905, 1149.8614958448761
35.34736842105263, 1110.3047091412755
35.419326367707185, 1067.2576177285337
35.45857615679148, 1016.0664819944614
35.5725874488935, 1047.6454293628813
35.61230449737167, 1122.2299168975078
35.645012654941915, 1176.0387811634355
35.67772081251216, 1226.939058171747
35.79219936400804, 1259.4182825484768
35.83308456097086, 1333.1024930747935
35.87396975793368, 1386.9113573407212
35.9426568888312, 1436.0664819944614
35.9557401518593, 1485.3185595567884
35.98844830942956, 1531.8559556786713
35.994989940943604, 1593.1301939058194
36.021156466999805, 1730.1246537396128
36.02933350639236, 1664.6814404432153
36.037510545784926, 1789.7506925207763
36.05386462457005, 1828.53185595568
36.06040625608411, 1888.6426592797798
36.102926860925436, 2032.6177285318572
36.102926860925436, 1970.0831024930758
36.12582257122461, 2095.734072022162
36.151989097280804, 2214.4044321329657
36.151989097280804, 2167.867036011081
36.16834317606593, 2260.9418282548486
36.18469725485106, 2388.9196675900293
36.18469725485106, 2342.3822714681446
36.18469725485106, 2301.6620498614975
36.18469725485106, 2127.146814404434
36.19287429424362, 2441.274238227148
36.217405412421314, 2571.1911357340723
36.217405412421314, 2524.6537396121894
36.217405412421314, 2490.720221606649
36.22394704393537, 2633.2409972299174
36.25011356999156, 2682.68698060942
36.25665520150561, 2831.0249307479244
36.25665520150561, 2737.9501385041567
36.26646764877669, 2900.8310249307488
36.28282172756181, 2955.1246537396128
36.28282172756181, 2993.9058171745164
36.29917580634694, 3168.42105263158
36.29917580634694, 3121.883656509697
36.29917580634694, 3075.3462603878124
36.29917580634694, 3028.8088642659295
36.315529885132065, 3253.7396121883667
36.315529885132065, 3213.0193905817196
36.32207151664612, 3315.013850415513
36.34823804270232, 3517.4515235457075
36.34823804270232, 3470.9141274238245
36.34823804270232, 3424.37673130194
36.34823804270232, 3377.839335180057
36.35477967421637, 3580.2770083102496
36.38094620027257, 3920.775623268699
36.38094620027257, 3874.238227146815
36.38094620027257, 3827.700831024931
36.38094620027257, 3781.1634349030473
36.38094620027257, 3734.6260387811644
36.38094620027257, 3688.0886426592806
36.38094620027257, 3641.5512465373968
36.387487831786615, 3982.825484764544
36.39730027905769, 4192.243767313021
36.39730027905769, 4145.706371191137
36.39730027905769, 4099.168975069253
36.39730027905769, 4052.6315789473692
36.413654357842816, 4607.202216066483
36.413654357842816, 4560.664819944599
36.413654357842816, 4514.127423822715
36.413654357842816, 4467.590027700831
36.413654357842816, 4421.0526315789475
36.413654357842816, 4374.515235457065
36.413654357842816, 4327.977839335181
36.413654357842816, 4281.440443213297
36.413654357842816, 4238.781163434904
36.42019598935687, 4669.252077562328
36.44636251541307, 5099.722991689751
36.44636251541307, 5053.185595567868
36.44636251541307, 5006.648199445985
36.44636251541307, 4960.110803324101
36.44636251541307, 4913.573407202217
36.44636251541307, 4867.036011080333
36.44636251541307, 4820.498614958449
36.44636251541307, 4773.961218836566
36.44636251541307, 4731.301939058173
36.44636251541307, 5204.43213296399
36.46598740995522, 5160.221606648201
36.47907067298332, 5371.191135734073
36.47907067298332, 5324.653739612189
36.47907067298332, 5278.1163434903065
36.47907067298332, 5231.578947368423
36.47907067298332, 5495.2908587257625
36.49542475176845, 5439.058171745153
36.51177883055357, 5890.858725761774
36.51177883055357, 5844.32132963989
36.51177883055357, 5797.783933518006
36.51177883055357, 5751.246537396123
36.51177883055357, 5704.709141274239
36.51177883055357, 5658.1717451523555
36.51177883055357, 5611.634349030472
36.51177883055357, 5565.096952908588
36.51177883055357, 5518.559556786705
36.51832046206762, 5951.357340720222
36.528132909338694, 6484.21052631579
36.528132909338694, 6437.673130193906
36.528132909338694, 6391.135734072023
36.528132909338694, 6344.5983379501395
36.528132909338694, 6298.060941828256
36.528132909338694, 6204.986149584488
36.528132909338694, 6158.448753462605
36.528132909338694, 6111.911357340721
36.528132909338694, 6065.373961218837
36.528132909338694, 6018.836565096954
36.54448698812382, 6709.141274238228
36.54448698812382, 6662.603878116344
36.54448698812382, 6616.06648199446
36.54448698812382, 6569.529085872577
36.54448698812382, 6526.869806094184
36.54448698812382, 6253.462603878117
36.54448698812382, 6809.972299168976
36.56411188266597, 6769.252077562328
36.57719514569408, 7306.371191135735
36.57719514569408, 7259.833795013851
36.57719514569408, 7213.296398891967
36.57719514569408, 7166.759002770084
36.57719514569408, 7120.221606648201
36.57719514569408, 7073.684210526317
36.57719514569408, 7027.146814404433
36.57719514569408, 6980.609418282549
36.57719514569408, 6934.072022160666
36.57719514569408, 6887.534626038782
36.57719514569408, 6840.9972299168985
36.593549224479204, 7374.238227146815
36.609903303264325, 7996.675900277009
36.609903303264325, 7950.138504155126
36.609903303264325, 7903.601108033242
36.609903303264325, 7857.063711911358
36.609903303264325, 7810.526315789474
36.609903303264325, 7763.98891966759
36.609903303264325, 7717.4515235457075
36.609903303264325, 7670.914127423824
36.609903303264325, 7624.37673130194
36.609903303264325, 7577.839335180056
36.609903303264325, 7531.301939058172
36.609903303264325, 7484.764542936289
36.609903303264325, 7438.227146814405
36.62625738204945, 8275.90027700831
36.62625738204945, 8229.362880886427
36.62625738204945, 8182.825484764544
36.62625738204945, 8136.28808864266
36.62625738204945, 8089.750692520776
36.62625738204945, 8043.213296398892
36.64261146083457, 8630.747922437673
36.64261146083457, 8368.97506925208
36.65078850022714, 8332.617728531857
36.6589655396197, 8921.606648199446
36.6589655396197, 8875.069252077563
36.6589655396197, 8828.53185595568
36.6589655396197, 8781.994459833795
36.6589655396197, 8735.457063711912
36.6589655396197, 8688.919667590028
36.6589655396197, 8502.770083102494
36.6589655396197, 8456.23268698061
36.6589655396197, 8409.695290858726
36.66441689921474, 8562.880886426594
36.67531961840483, 9063.157894736843
36.67531961840483, 9016.620498614959
36.68349665779739, 8963.781163434904
36.68840288143293, 9164.76454293629
36.70148614446103, 9105.429362880888
36.7243818547602, 9233.795013850417
36.74073593354533, 9439.335180055403
36.75709001233045, 9337.534626038781
36.75709001233045, 9290.997229916899
36.75709001233045, 9526.592797783935
36.767992731520536, 9396.675900277009
36.77344409111558, 9474.238227146816
36.806152248685834, 9200.831024930749
36.806152248685834, 9144.59833795014
36.806152248685834, 9098.060941828255
36.806152248685834, 9051.523545706372
36.806152248685834, 9004.986149584489
36.806152248685834, 8958.448753462604
36.806152248685834, 8911.911357340721
36.806152248685834, 8867.313019390582
36.830683366863525, 8463.504155124654
36.83886040625608, 8745.152354570637
36.83886040625608, 8698.614958448754
36.83886040625608, 8652.077562326871
36.83886040625608, 8605.540166204986
36.83886040625608, 8559.002770083103
36.83886040625608, 8512.465373961219
36.83886040625608, 9241.551246537398
36.845402037770135, 8806.426592797785
36.86339152443377, 8245.360110803325
36.87156856382633, 8341.828254847645
36.87156856382633, 8295.290858725763
36.87156856382633, 7973.407202216067
36.87811019534038, 8403.87811634349
36.88792264261146, 8124.653739612189
36.88792264261146, 8078.116343490306
36.88792264261146, 8031.578947368422
36.88792264261146, 7845.429362880887
36.88792264261146, 7798.8919667590035
36.88792264261146, 7752.35457063712
36.88792264261146, 7705.817174515236
36.8933740022065, 8182.825484764544
36.8933740022065, 7903.601108033242
36.904276721396585, 7663.1578947368425
36.904276721396585, 7616.620498614959
36.904276721396585, 7570.083102493075
36.904276721396585, 7523.545706371192
36.904276721396585, 7477.008310249308
36.904276721396585, 7430.470914127424
36.904276721396585, 7383.9335180055405
36.904276721396585, 7337.396121883657
36.904276721396585, 7290.858725761774
36.904276721396585, 7244.32132963989
36.904276721396585, 7197.783933518006
36.904276721396585, 7153.1855955678675
36.928807839574276, 6885.595567867037
36.93698487896684, 7031.0249307479235
36.93698487896684, 6984.48753462604
36.93698487896684, 6937.950138504156
36.93698487896684, 6327.146814404433
36.94352651048089, 7093.850415512466
36.96969303653709, 6763.434903047092
36.96969303653709, 6716.897506925208
36.96969303653709, 6670.3601108033245
36.96969303653709, 6623.8227146814415
36.96969303653709, 6577.285318559558
36.96969303653709, 6530.747922437674
36.96969303653709, 6484.21052631579
36.96969303653709, 6437.673130193906
36.96969303653709, 6391.135734072023
36.96969303653709, 6344.5983379501395
36.97623466805114, 6823.9335180055405
36.986047115322215, 6286.426592797785
36.986047115322215, 6239.889196675901
36.986047115322215, 6193.351800554017
36.986047115322215, 6146.814404432133
36.986047115322215, 6100.2770083102505
36.986047115322215, 6053.739612188367
36.986047115322215, 6007.202216066483
36.986047115322215, 5914.127423822715
36.986047115322215, 5867.590027700832
36.986047115322215, 5821.052631578948
36.986047115322215, 5774.515235457065
36.986047115322215, 5727.977839335181
36.986047115322215, 5681.440443213297
36.986047115322215, 5634.903047091414
37.002401194107335, 5956.786703601109
37.002401194107335, 5590.3047091412745
37.01875527289246, 5541.828254847646
37.01875527289246, 5495.2908587257625
37.01875527289246, 5448.753462603879
37.01875527289246, 5402.216066481996
37.01875527289246, 5355.678670360112
37.01875527289246, 5309.141274238228
37.01875527289246, 5262.603878116344
37.02693231228503, 4503.462603878117
37.03510935167759, 5208.31024930748
37.03510935167759, 5161.772853185597
37.03510935167759, 5115.2354570637135
37.03510935167759, 5068.69806094183
37.03510935167759, 5022.160664819946
37.03510935167759, 4975.623268698062
37.03510935167759, 4929.085872576179
37.03510935167759, 4882.548476454295
37.03510935167759, 4836.011080332411
37.03510935167759, 4789.473684210528
37.03510935167759, 4742.936288088644
37.03510935167759, 4696.398891966761
37.03510935167759, 4649.861495844877
37.03510935167759, 4603.324099722993
37.03510935167759, 4556.786703601109
37.05964046985528, 4033.7257617728546
37.067817509247845, 4455.955678670361
37.067817509247845, 4409.418282548477
37.067817509247845, 4362.880886426593
37.067817509247845, 4316.34349030471
37.067817509247845, 4269.806094182826
37.067817509247845, 4223.268698060942
37.067817509247845, 4176.7313019390585
37.067817509247845, 4130.193905817175
37.067817509247845, 4083.656509695292
37.084171588032966, 3846.1218836565104
37.10052566681809, 3924.6537396121894
37.10052566681809, 3878.1163434903056
37.10052566681809, 3750.1385041551257
37.10706729833214, 3686.1495844875353
37.10870270621065, 3977.008310249308
37.116879745603214, 3546.5373961218847
37.122331105198256, 3788.9196675900293
37.122331105198256, 3602.770083102495
37.13323382438834, 3498.0609418282565
37.13323382438834, 3451.523545706372
37.13323382438834, 3404.986149584489
37.13323382438834, 3358.448753462606
37.13323382438834, 3022.9916897506937
37.14958790317347, 3310.9418282548486
37.14958790317347, 3264.4044321329657
37.14958790317347, 3217.867036011081
37.14958790317347, 3171.329639889198
37.165941981958596, 3040.4432132963993
37.17248361347265, 3100.9418282548486
37.198650139528844, 2982.271468144045
37.198650139528844, 2935.734072022162
37.198650139528844, 2889.196675900279
37.198650139528844, 2842.659279778394
37.198650139528844, 2796.1218836565113
37.198650139528844, 2751.523545706372
37.223181257706536, 2508.1717451523564
37.23135829709909, 2703.0470914127436
37.23135829709909, 2656.5096952908607
37.23135829709909, 2609.972299168976
37.23135829709909, 2563.434903047093
37.24771237588422, 2470.3601108033254
37.24771237588422, 2423.8227146814424
37.24771237588422, 2377.2853185595577
37.26406645466935, 2330.747922437675
37.26406645466935, 2284.21052631579
37.26406645466935, 2237.673130193907
37.26406645466935, 2191.135734072024
37.26406645466935, 2146.5373961218847
37.2967746122396, 2098.0609418282565
37.303316243753656, 1991.0249307479226
37.31312869102473, 2042.79778393352
37.321305730417286, 1894.4598337950156
37.32948276980985, 1946.8144044321343
37.32948276980985, 1685.0415512465388
37.3621909273801, 1842.105263157895
37.3621909273801, 1795.567867036012
37.3621909273801, 1749.0304709141292
37.3621909273801, 1702.4930747922444
37.39489908495035, 1632.68698060942
37.39489908495035, 1586.1495844875353
37.419430203128044, 1533.7950138504166
37.460315400090856, 1464.9584487534648
37.48484651826854, 1346.1911357340741
37.493023557661104, 1396.1218836565113
37.52573171523136, 1295.2908587257625
37.54208579401649, 1245.3601108033254
37.574793951586734, 1190.581717451525
37.574793951586734, 1106.232686980611
37.591148030371855, 1140.1662049861498
37.62385618794211, 1050.9695290858745
37.62385618794211, 996.6759002770104
37.66590953338958, 925.4847645429363
37.78739697579337, 884.21052631579
37.80375105457849, 837.1883656509708
37.83645921214874, 786.288088642661
37.869167369718994, 731.0249307479244
37.89642416769421, 688.3656509695302
37.93131286910247, 642.6038781163443
37.99672918424297, 576.288088642661
38.0654163151405, 544.875346260389
38.1962489454215, 524.5152354570655
38.29437341813226, 470.2216066482015
38.39950678175092, 421.0526315789484
38.52566681809332, 410.24930747922554
38.621454993834774, 416.8975069252083
38.62963203322734, 364.54293628808955
38.690142124732304, 328.47645429363
38.8078914919852, 333.1301939058176
38.860224544097605, 309.8614958448761
38.97143227983646, 344.7645429362892
39.11207735738854, 334.0027700831033
39.23309754039847, 299.39058171745273
39.27561814523979, 283.10249307479353
39.406450775520796, 294.73684210526517
39.5372834058018, 274.3767313019398
39.671386851839834, 244.7091412742393
39.76624050879356, 209.41828254847678
39.87137387241222, 253.1855955678693
39.98538516451424, 236.5650969529106
40.12603024206632, 227.83933518005688
40.25686287234733, 216.20498614958524
40.39859822181842, 199.72299168975223
40.49399701473165, 217.6592797783942
40.58394444804984, 188.5734072022169
40.71150626257382, 166.7590027700844
40.791096112661435, 141.55124653739767
40.90121357648128, 170.24930747922554
41.04185865403336, 169.66759002770232
41.18359400350445, 163.8504155124665
41.30352391459536, 146.39889196676086
41.434356544876366, 160.9418282548486
41.56518917515737, 149.30747922437877
41.6338763060549, 102.77008310249403
41.76470893633591, 128.36565096953018
41.84320851450451, 120.22160664820149
71.46044519436693, 312.1883656509708
71.48334090466611, 266.8144044321343
71.62398598221819, 230.7479224376748
71.69485365695373, 205.54016620498805
71.75808942825621, 255.1800554016645
71.8856512427802, 248.19944598338043
71.9510675579207, 210.38781163435124
72.0819001882017, 192.93628808864378
72.21600363423973, 183.0470914127436
72.29450321240833, 160.9418282548486
72.32721136997858, 203.60110803324278
72.40898176390421, 236.5650969529106
72.53981439418521, 255.4709141274252
72.67064702446622, 262.74238227147
72.80147965474723, 297.6454293628831
72.93231228502823, 328.1855955678675
73.06314491530924, 304.91689750692603
73.15799857226297, 262.16066481994676
73.292102018301, 238.01939058171956
73.422934648582, 210.38781163435124
73.56357972613408, 195.8448753462617
73.66824583035888, 143.49030470914295
73.67914854954896, 170.63711911357495
73.815432539425, 162.39612188365754
73.94626516970601, 127.49307479224444
74.01713284444156, 114.40443213296567
74.14251411512753, 117.31301939058358
74.27334674540853, 110.0415512465388
74.40417937568952, 98.40720221606716
74.53501200597053, 110.0415512465388
74.67565708352261, 102.77008310249403
74.78686481926147, 77.17451523545787
74.92750989681355, 80.95567867036152
