33.16531073552602, 0.4609381957922729
33.371424809307484, 0.4613069115508488
33.59226131693049, 0.4609571882558585
33.81309782455348, 0.46096701194392
34.019211898334945, 0.46133572770249587
34.18115867059181, 0.461882252214985
34.26949327364101, 0.4660209719953037
34.40199517821481, 0.48196678245676505
34.40199517821481, 0.47657357771098985
34.40199517821481, 0.47177961793696754
34.416717612056345, 0.4890385280359857
34.47560734742248, 0.5454900240252489
34.47560734742248, 0.5400968192794737
34.47560734742248, 0.5347036145336985
34.47560734742248, 0.5293104097879233
34.47560734742248, 0.5239172050421481
34.47560734742248, 0.5185240002963729
34.47560734742248, 0.5131307955505979
34.47560734742248, 0.5077375908048227
34.47560734742248, 0.5023443860590475
34.47560734742248, 0.49725080379914854
34.51241343202631, 0.5670644802896931
34.51241343202631, 0.5616712755439179
34.51241343202631, 0.5562780707981427
34.51241343202631, 0.5508848660523675
34.549219516630146, 0.6317845745203388
34.549219516630146, 0.6263913697745636
34.549219516630146, 0.6209981650287886
34.549219516630146, 0.6156049602830134
34.549219516630146, 0.6102117555372382
34.549219516630146, 0.604818550791463
34.549219516630146, 0.5994253460456878
34.549219516630146, 0.5940321412999126
34.549219516630146, 0.5886389365541373
34.549219516630146, 0.5832457318083624
34.549219516630146, 0.5778525270625872
34.56762255893206, 0.5715612734998545
34.62283168583781, 0.76122476298163
34.62283168583781, 0.7558315582358548
34.62283168583781, 0.7504383534900796
34.62283168583781, 0.7450451487443044
34.62283168583781, 0.7396519439985292
34.62283168583781, 0.734258739252754
34.62283168583781, 0.728865534506979
34.62283168583781, 0.7234723297612038
34.62283168583781, 0.7180791250154286
34.62283168583781, 0.7126859202696534
34.62283168583781, 0.7072927155238782
34.62283168583781, 0.701899510778103
34.62283168583781, 0.6965063060323278
34.62283168583781, 0.6911131012865528
34.62283168583781, 0.6857198965407776
34.62283168583781, 0.6803266917950024
34.62283168583781, 0.6749334870492272
34.62283168583781, 0.669540282303452
34.62283168583781, 0.6641470775576768
34.62283168583781, 0.6587538728119016
34.62283168583781, 0.6533606680661266
34.62283168583781, 0.6479674633203514
34.62283168583781, 0.6425742585745762
34.62283168583781, 0.637181053828801
34.65963777044164, 0.8259448572122757
34.65963777044164, 0.8205516524665005
34.65963777044164, 0.8151584477207253
34.69644385504547, 0.8097668802562936
34.69644385504547, 0.8043736755105184
34.69644385504547, 0.7989804707647434
34.69644385504547, 0.7935872660189682
34.69644385504547, 0.788194061273193
34.69644385504547, 0.7828008565274178
34.69644385504547, 0.7774076517816426
34.69644385504547, 0.7720144470358674
34.69644385504547, 0.7666212422900922
34.73324993964931, 0.6317927609270566
34.73324993964931, 0.6263995561812814
34.73324993964931, 0.6210063514355064
34.73324993964931, 0.6156131466897312
34.751652981951224, 0.5446034361776964
34.77005602425314, 0.6102215792252996
34.77005602425314, 0.6048283744795244
34.77005602425314, 0.5994351697337492
34.77005602425314, 0.594041964987974
34.77005602425314, 0.5886487602421988
34.77005602425314, 0.5832555554964238
34.77005602425314, 0.5778623507506486
34.77005602425314, 0.5724691460048734
34.77005602425314, 0.5670759412590982
34.77005602425314, 0.561682736513323
34.77005602425314, 0.5562895317675478
34.77005602425314, 0.5508963270217726
34.77005602425314, 0.7612313121070045
34.77005602425314, 0.7558381073612293
34.77005602425314, 0.750444902615454
34.77005602425314, 0.7450516978696788
34.77005602425314, 0.7396584931239036
34.77005602425314, 0.7342652883781284
34.77005602425314, 0.7288720836323535
34.77005602425314, 0.7234788788865782
34.77005602425314, 0.718085674140803
34.77005602425314, 0.7126924693950278
34.77005602425314, 0.7072992646492526
34.77005602425314, 0.7019060599034774
34.77005602425314, 0.6965128551577022
34.77005602425314, 0.6911196504119272
34.77005602425314, 0.685726445666152
34.77005602425314, 0.6803332409203768
34.77005602425314, 0.6749400361746016
34.77005602425314, 0.6695468314288264
34.77005602425314, 0.6641536266830512
34.77005602425314, 0.658760421937276
34.77005602425314, 0.653367217191501
34.77005602425314, 0.6479740124457258
34.77005602425314, 0.6425808076999506
34.77005602425314, 0.6371876029541754
34.806862108856976, 0.540111554811566
34.806862108856976, 0.5347183500657908
34.806862108856976, 0.5293251453200156
34.806862108856976, 0.5239319405742404
34.806862108856976, 0.5185387358284652
34.806862108856976, 0.5131455310826902
34.806862108856976, 0.507752326336915
34.806862108856976, 0.5023591215911398
34.806862108856976, 0.4969659168453646
34.806862108856976, 0.4915727120995894
34.806862108856976, 0.4861795073538142
34.84366819346081, 0.4807879398893826
34.84366819346081, 0.47569435762948387
34.91728036266848, 0.47000480496051944
35.009295574178054, 0.4646156934181034
35.19332599719722, 0.46282614490956275
35.43256554712214, 0.4610390523230379
35.66812448858667, 0.4614090779066886
35.874238562368134, 0.4610586996991608
36.0803526361496, 0.4614274154577367
71.57614062808612, 0.46264686260244003
71.79697713570911, 0.4626566862905015
72.01781364333212, 0.4626665099785632
72.23865015095512, 0.46267633366662464
72.44476422473657, 0.46124731450994205
72.6803231662011, 0.4635948485003767
72.90115967382411, 0.46944731066302814
72.90115967382411, 0.4639042946743146
73.12199618144712, 0.4681088331646459
73.12199618144712, 0.46361449587649983
73.30602660446627, 0.46137551363914464
73.34283268907011, 0.4645231870221904
73.5636691966931, 0.46273527579499385
73.7845057043161, 0.4627450994830553
74.0053422119391, 0.46275492317111677
74.22617871956209, 0.4624651243733018
74.41020914258127, 0.4627729332658963
