32.00690792141596, 0.021364719253382347
32.40563021330489, 0.02011753327650667
32.60499135924935, 0.017623161322754877
32.80435250519381, 0.017623161322754877
32.99303358974839, 0.017801330748022925
33.15323451059662, 0.014505196380565355
33.352595656541084, 0.015128789369003304
33.562636863875426, 0.016732314196414855
33.73636586248417, 0.018371472908880193
33.801158234916116, 0.012946213909470483
33.96135915576435, 0.019583025000702747
34.075279810589755, 0.017623161322754877
34.1108800152227, 0.03152037649365691
34.199880526805046, 0.05794884124174016
34.199880526805046, 0.04506125281402329
34.24972081329116, 0.1616731416519137
34.24972081329116, 0.15169565383690697
34.24972081329116, 0.14171816602190024
34.24972081329116, 0.13174067820689372
34.24972081329116, 0.12176319039188699
34.24972081329116, 0.11178570257688025
34.24972081329116, 0.10180821476187374
34.24972081329116, 0.091830726946867
34.24972081329116, 0.08185323913186027
34.24972081329116, 0.07187575131685375
34.24972081329116, 0.03508376499901655
34.25470484193977, 0.17252365965073357
34.29956109977728, 0.4192170458767732
34.29956109977728, 0.4092395580617665
34.29956109977728, 0.39926207024675997
34.29956109977728, 0.38928458243175323
34.29956109977728, 0.3793070946167465
34.29956109977728, 0.36932960680174
34.29956109977728, 0.35935211898673325
34.29956109977728, 0.3493746311717265
34.29956109977728, 0.33939714335672
34.29956109977728, 0.32941965554171326
34.29956109977728, 0.3194421677267065
34.29956109977728, 0.3094646799117
34.29956109977728, 0.2994871920966933
34.29956109977728, 0.28950970428168654
34.29956109977728, 0.2795322164666798
34.29956109977728, 0.2695547286516733
34.29956109977728, 0.25957724083666656
34.29956109977728, 0.24959975302165982
34.29956109977728, 0.2396222652066533
34.29956109977728, 0.22964477739164657
34.29956109977728, 0.21966728957663983
34.29956109977728, 0.20968980176163332
34.29956109977728, 0.19971231394662659
34.29956109977728, 0.18973482613161985
34.307867814191624, 0.43127317698657297
34.307867814191624, 0.181004524293489
34.32448124302033, 0.04506125281402329
34.349401386263395, 0.050673589709964606
34.35770810067774, 0.06210612783132641
34.374321529506446, 0.10617336568093916
34.374321529506446, 0.09619587786593242
34.374321529506446, 0.08621839005092569
34.374321529506446, 0.07624090223591917
34.399241672749504, 0.15356643280222082
34.399241672749504, 0.14358894498721408
34.399241672749504, 0.13361145717220735
34.399241672749504, 0.12363396935720083
34.399241672749504, 0.11428007453063205
34.40754838716386, 0.16603829257097913
34.41585510157821, 0.4433293080963725
34.42416181599256, 0.8528220371706046
34.42416181599256, 0.6832047443154912
34.42416181599256, 0.6732272565004846
34.42416181599256, 0.6632497686854781
34.42416181599256, 0.6532722808704714
34.42416181599256, 0.6432947930554647
34.42416181599256, 0.6333173052404582
34.42416181599256, 0.6233398174254514
34.42416181599256, 0.6133623296104447
34.42416181599256, 0.6033848417954382
34.42416181599256, 0.5934073539804314
34.42416181599256, 0.5834298661654247
34.42416181599256, 0.573452378350418
34.42416181599256, 0.5634748905354114
34.42416181599256, 0.5534974027204047
34.42416181599256, 0.543519914905398
34.42416181599256, 0.5335424270903915
34.42416181599256, 0.5235649392753847
34.42416181599256, 0.513587451460378
34.42416181599256, 0.5036099636453715
34.42416181599256, 0.49363247583036474
34.42416181599256, 0.483654988015358
34.42416181599256, 0.4736775002003515
34.42416181599256, 0.46370001238534475
34.42416181599256, 0.45538543920617247
34.42416181599256, 0.3406443293335957
34.42416181599256, 0.33066684151858916
34.42416181599256, 0.3206893537035824
34.42416181599256, 0.3107118658885757
34.42416181599256, 0.3007343780735692
34.42416181599256, 0.29075689025856244
34.42416181599256, 0.2807794024435557
34.42416181599256, 0.27080191462854897
34.42416181599256, 0.26082442681354245
34.42416181599256, 0.2508469389985357
34.42416181599256, 0.24086945118352898
34.42416181599256, 0.23089196336852247
34.42416181599256, 0.22091447555351573
34.42416181599256, 0.210936987738509
34.42416181599256, 0.20095949992350248
34.42416181599256, 0.19098201210849575
34.42416181599256, 0.181004524293489
34.44908195923562, 1.070871718794396
34.44908195923562, 1.0608942309793894
34.44908195923562, 1.0509167431643827
34.44908195923562, 1.0409392553493761
34.44908195923562, 1.0309617675343694
34.44908195923562, 1.0209842797193627
34.44908195923562, 1.011006791904356
34.44908195923562, 1.0010293040893494
34.44908195923562, 0.9910518162743427
34.44908195923562, 0.9810743284593361
34.44908195923562, 0.9710968406443293
34.44908195923562, 0.9611193528293227
34.44908195923562, 0.9511418650143161
34.44908195923562, 0.9411643771993095
34.44908195923562, 0.9311868893843027
34.44908195923562, 0.9212094015692962
34.44908195923562, 0.9112319137542895
34.44908195923562, 0.9012544259392827
34.44908195923562, 0.8912769381242762
34.44908195923562, 0.8812994503092695
34.44908195923562, 0.8713219624942627
34.44908195923562, 0.8613444746792562
34.44908195923562, 0.8314120112342362
34.44908195923562, 0.8214345234192295
34.44908195923562, 0.8114570356042228
34.44908195923562, 0.8014795477892163
34.44908195923562, 0.7915020599742095
34.44908195923562, 0.7815245721592028
34.44908195923562, 0.771547084344196
34.44908195923562, 0.7615695965291895
34.44908195923562, 0.7515921087141828
34.44908195923562, 0.7416146208991761
34.44908195923562, 0.7316371330841696
34.44908195923562, 0.7216596452691628
34.44908195923562, 0.7116821574541561
34.44908195923562, 0.7017046696391496
34.44908195923562, 0.6923507748125808
34.44908195923562, 0.42794734771490406
34.44908195923562, 0.4179698598998973
34.44908195923562, 0.4079923720848908
34.44908195923562, 0.3980148842698841
34.44908195923562, 0.38803739645487734
34.44908195923562, 0.3780599086398708
34.44908195923562, 0.3680824208248641
34.44908195923562, 0.35810493300985735
34.44908195923562, 0.34875103818328856
34.45738867364997, 1.0831357142336753
34.46403404518146, 0.8424288206966393
34.49892224572174, 1.4350500240421393
34.49892224572174, 1.4250725362271326
34.49892224572174, 1.415095048412126
34.49892224572174, 1.4051175605971193
34.49892224572174, 1.3951400727821128
34.49892224572174, 1.385162584967106
34.49892224572174, 1.3751850971520994
34.49892224572174, 1.3652076093370926
34.49892224572174, 1.3552301215220859
34.49892224572174, 1.3452526337070794
34.49892224572174, 1.3352751458920729
34.49892224572174, 1.3252976580770661
34.49892224572174, 1.3153201702620594
34.49892224572174, 1.3053426824470526
34.49892224572174, 1.295365194632046
34.49892224572174, 1.2853877068170394
34.49892224572174, 1.2754102190020327
34.49892224572174, 1.2654327311870261
34.49892224572174, 1.2554552433720194
34.49892224572174, 1.2454777555570127
34.49892224572174, 1.235500267742006
34.49892224572174, 1.2255227799269992
34.49892224572174, 1.2155452921119927
34.49892224572174, 1.2055678042969862
34.49892224572174, 1.1955903164819794
34.49892224572174, 1.1856128286669727
34.49892224572174, 1.175635340851966
34.49892224572174, 1.1656578530369592
34.49892224572174, 1.1556803652219527
34.49892224572174, 1.145702877406946
34.49892224572174, 1.1357253895919395
34.49892224572174, 1.1257479017769327
34.49892224572174, 1.115770413961926
34.49892224572174, 1.1057929261469193
34.49892224572174, 1.0958154383319128
34.50960230711162, 1.4488581545004076
34.54377850355924, 1.5319563744453917
34.54876253220785, 1.5211058564465718
34.54876253220785, 1.5111283686315653
34.54876253220785, 1.5011508808165586
34.54876253220785, 1.491173393001552
34.54876253220785, 1.4811959051865453
34.54876253220785, 1.4712184173715386
34.557069246622206, 1.4631117085218457
34.62352296193703, 1.5529090988569056
34.64013639076573, 0.9027094762456378
34.64013639076573, 0.8927319884306313
34.64013639076573, 0.8827545006156245
34.64013639076573, 0.8727770128006178
34.64013639076573, 0.8627995249856113
34.64013639076573, 0.8528220371706046
34.648443105180085, 1.5423080180534612
34.648443105180085, 1.0727424977597098
34.648443105180085, 1.0627650099447032
34.648443105180085, 1.0530993186239155
34.648443105180085, 1.04281003431469
34.648443105180085, 1.0328325464996833
34.648443105180085, 1.0228550586846765
34.648443105180085, 1.0128775708696698
34.648443105180085, 1.0029000830546633
34.648443105180085, 0.9929225952396565
34.648443105180085, 0.9829451074246499
34.648443105180085, 0.9729676196096433
34.648443105180085, 0.9629901317946366
34.648443105180085, 0.9530126439796299
34.648443105180085, 0.9430351561646233
34.648443105180085, 0.9330576683496166
34.648443105180085, 0.9230801805346098
34.648443105180085, 0.9131026927196033
34.648443105180085, 0.8407659060608048
34.648443105180085, 0.8307884182457983
34.648443105180085, 0.8208109304307916
34.648443105180085, 0.8108334426157848
34.648443105180085, 0.8008559548007783
34.648443105180085, 0.7908784669857716
34.648443105180085, 0.7809009791707648
34.648443105180085, 0.7709234913557583
34.648443105180085, 0.7609460035407516
34.648443105180085, 0.7509685157257449
34.648443105180085, 0.7409910279107383
34.648443105180085, 0.7310135400957316
34.648443105180085, 0.7210360522807249
34.648443105180085, 0.7110585644657181
34.648443105180085, 0.7010810766507116
34.648443105180085, 0.6917271818241428
34.663395191125915, 1.0839671715515924
34.68997667725185, 1.0914502874128473
34.6982833916662, 1.440038767949643
34.6982833916662, 1.4300612801346362
34.6982833916662, 1.4200837923196294
34.6982833916662, 1.4101063045046227
34.6982833916662, 1.4001288166896162
34.6982833916662, 1.3901513288746095
34.6982833916662, 1.380173841059603
34.6982833916662, 1.3701963532445962
34.6982833916662, 1.3602188654295895
34.6982833916662, 1.3502413776145827
34.6982833916662, 1.340263889799576
34.6982833916662, 1.3302864019845695
34.6982833916662, 1.320308914169563
34.6982833916662, 1.3103314263545562
34.6982833916662, 1.3003539385395495
34.6982833916662, 1.2903764507245428
34.6982833916662, 1.280398962909536
34.6982833916662, 1.2704214750945295
34.6982833916662, 1.2604439872795228
34.6982833916662, 1.2504664994645163
34.6982833916662, 1.2404890116495095
34.6982833916662, 1.2305115238345028
34.6982833916662, 1.220534036019496
34.6982833916662, 1.2105565482044893
34.6982833916662, 1.2005790603894828
34.6982833916662, 1.1906015725744763
34.6982833916662, 1.1806240847594696
34.6982833916662, 1.1706465969444628
34.6982833916662, 1.160669109129456
34.6982833916662, 1.1506916213144494
34.6982833916662, 1.1407141334994428
34.6982833916662, 1.130736645684436
34.6982833916662, 1.1207591578694296
34.6982833916662, 1.1107816700544229
34.6982833916662, 1.1008041822394161
34.71489682049491, 1.4523027633889218
34.72320353490926, 1.5287968366373064
34.74812367815231, 1.5198586704696961
34.74812367815231, 1.5098811826546894
34.74812367815231, 1.4999036948396829
34.74812367815231, 1.4899262070246762
34.74812367815231, 1.4799487192096694
34.74812367815231, 1.4699712313946627
34.74812367815231, 1.4631117085218457
34.78301187869259, 0.48656508862806813
34.79796396463843, 0.6667834622866262
34.79796396463843, 0.6568059744716195
34.79796396463843, 0.6468284866566127
34.79796396463843, 0.6368509988416062
34.79796396463843, 0.6268735110265995
34.79796396463843, 0.6168960232115928
34.79796396463843, 0.6069185353965862
34.79796396463843, 0.5969410475815795
34.79796396463843, 0.5869635597665728
34.79796396463843, 0.5769860719515663
34.79796396463843, 0.5670085841365595
34.79796396463843, 0.5570310963215528
34.79796396463843, 0.547053608506546
34.79796396463843, 0.5370761206915395
34.79796396463843, 0.5270986328765328
34.79796396463843, 0.5171211450615261
34.79796396463843, 0.5071436572465196
34.79796396463843, 0.4971661694315128
34.80864402602831, 0.6805915927448942
34.82288410788149, 1.0648436532394963
34.82288410788149, 1.0548661654244895
34.82288410788149, 1.044888677609483
34.82288410788149, 1.0349111897944763
34.82288410788149, 1.0249337019794695
34.82288410788149, 1.0149562141644628
34.82288410788149, 1.0049787263494563
34.82288410788149, 0.9950012385344496
34.82288410788149, 0.9850237507194429
34.82288410788149, 0.9750462629044362
34.82288410788149, 0.9650687750894296
34.82288410788149, 0.9550912872744229
34.82288410788149, 0.9451137994594163
34.82288410788149, 0.9351363116444096
34.82288410788149, 0.9251588238294028
34.82288410788149, 0.9151813360143963
34.82288410788149, 0.9052038481993896
34.82288410788149, 0.8952263603843829
34.82288410788149, 0.8852488725693763
34.82288410788149, 0.8752713847543696
34.82288410788149, 0.8652938969393629
34.82288410788149, 0.8553164091243561
34.82288410788149, 0.8453389213093496
34.82288410788149, 0.8353614334943429
34.82288410788149, 0.8253839456793362
34.82288410788149, 0.8154064578643296
34.82288410788149, 0.8054289700493229
34.82288410788149, 0.7954514822343162
34.82288410788149, 0.7854739944193097
34.82288410788149, 0.7754965066043029
34.82288410788149, 0.7655190187892962
34.82288410788149, 0.7555415309742897
34.82288410788149, 0.7455640431592829
34.82288410788149, 0.7355865553442762
34.82288410788149, 0.7256090675292697
34.82288410788149, 0.7156315797142629
34.82288410788149, 0.7056540918992562
34.82288410788149, 0.6956766040842495
34.82288410788149, 1.453134220706839
34.82288410788149, 1.4431567328918324
34.82288410788149, 1.4331792450768257
34.82288410788149, 1.4232017572618192
34.82288410788149, 1.4132242694468125
34.82288410788149, 1.4032467816318057
34.82288410788149, 1.393269293816799
34.82288410788149, 1.3832918060017922
34.82288410788149, 1.3733143181867857
34.82288410788149, 1.3633368303717792
34.82288410788149, 1.3533593425567725
34.82288410788149, 1.3433818547417657
34.82288410788149, 1.333404366926759
34.82288410788149, 1.3234268791117523
34.82288410788149, 1.3134493912967458
34.82288410788149, 1.303471903481739
34.82288410788149, 1.2934944156667325
34.82288410788149, 1.2835169278517258
34.82288410788149, 1.273539440036719
34.82288410788149, 1.2635619522217123
34.82288410788149, 1.2535844644067056
34.82288410788149, 1.243606976591699
34.82288410788149, 1.2336294887766925
34.82288410788149, 1.2236520009616858
34.82288410788149, 1.213674513146679
34.82288410788149, 1.2036970253316723
34.82288410788149, 1.1937195375166656
34.83285216517871, 1.0784795532533389
34.84780425112454, 1.183742049701659
34.84780425112454, 1.1737645618866523
34.84780425112454, 1.1637870740716458
34.84780425112454, 1.153809586256639
34.84780425112454, 1.1438320984416324
34.84780425112454, 1.1338546106266256
34.84780425112454, 1.1238771228116191
34.84780425112454, 1.1138996349966124
34.84780425112454, 1.1039221471816059
34.84780425112454, 1.0939446593665991
34.86275633707038, 0.47958084715756377
34.89764453761066, 0.4522674742639827
34.89764453761066, 0.4422899864489762
34.89764453761066, 0.4323124986339695
34.89764453761066, 0.42233501081896274
34.89764453761066, 0.41235752300395623
34.89764453761066, 0.4023800351889495
34.89764453761066, 0.39240254737394276
34.89764453761066, 0.38242505955893624
34.89764453761066, 0.3724475717439295
34.89764453761066, 0.36247008392892277
34.89764453761066, 0.35249259611391626
34.89764453761066, 0.3425151082989095
34.89764453761066, 0.3325376204839028
34.89764453761066, 0.32256013266889627
34.89764453761066, 0.31258264485388954
34.89764453761066, 0.3026051570388828
34.89764453761066, 0.29262766922387606
34.89764453761066, 0.28265018140886955
34.89764453761066, 0.2726726935938628
34.89764453761066, 0.2626952057788561
34.89764453761066, 0.25271771796384956
34.89764453761066, 0.24274023014884283
34.89764453761066, 0.2327627423338361
34.89764453761066, 0.22278525451882958
34.89764453761066, 0.21280776670382284
34.89764453761066, 0.2028302788888161
34.89764453761066, 0.1928527910738096
34.914257966439365, 0.46453146970326187
34.947484824096776, 0.17165062946692022
34.947484824096776, 0.1616731416519137
34.947484824096776, 0.15169565383690697
34.947484824096776, 0.14171816602190024
34.947484824096776, 0.13174067820689372
34.947484824096776, 0.12176319039188699
34.947484824096776, 0.11178570257688025
34.947484824096776, 0.10180821476187374
34.947484824096776, 0.091830726946867
34.947484824096776, 0.6437105217144232
34.947484824096776, 0.6337330338994165
34.947484824096776, 0.62375554608441
34.947484824096776, 0.6137780582694032
34.947484824096776, 0.6038005704543965
34.947484824096776, 0.59382308263939
34.947484824096776, 0.5838455948243833
34.947484824096776, 0.5738681070093765
34.947484824096776, 0.56389061919437
34.947484824096776, 0.5539131313793633
34.947484824096776, 0.5439356435643565
34.947484824096776, 0.53395815574935
34.947484824096776, 0.5239806679343433
34.947484824096776, 0.5140031801193365
34.947484824096776, 0.5040256923043298
34.947484824096776, 0.4940482044893233
34.95104484456007, 0.03520254461586214
34.95579153851113, 0.08330828943821555
34.96243691004261, 0.1834988962472408
34.972404967339834, 0.4803291587436891
35.01227719652873, 0.026104025965510536
35.02224525382595, 0.23089196336852247
35.02224525382595, 0.22091447555351573
35.02224525382595, 0.210936987738509
35.02224525382595, 0.20095949992350248
35.04716539706901, 0.05940389154809522
35.04716539706901, 0.04942640373308871
35.052149425717616, 0.07025440954691509
35.097005683555125, 0.1124092955653182
35.097005683555125, 0.10243180775031169
35.097005683555125, 0.09245431993530495
35.097005683555125, 0.08247683212029822
35.14684597004124, 0.021052922759163373
35.1717661132843, 0.05379155465215413
35.19668625652736, 0.04007250890651992
35.2049929709417, 0.02801637779672017
35.35688717737558, 0.0185140084490949
35.545568261930164, 0.018246754311192825
35.71004120733434, 0.017872598518130056
71.9289773967945, 0.009100723814103873
72.12833854273896, 0.006710284025091884
72.34431311751213, 0.00681421618983169
72.51460076300636, 0.011699027932595474
72.6616296081404, 0.024357965597885167
72.79287569588718, 0.03570735798745517
72.84105463949041, 0.04780506196315071
72.89089492597653, 0.05927917295040852
73.07530398597515, 0.061274670513409735
73.2198408167849, 0.037827574148144194
73.2248248454335, 0.027912445631981253
73.2248248454335, 0.05004999672152732
73.33518547979561, 0.01797950017329142
73.44079942020667, 0.009100723814104095
73.6085950513766, 0.008393985093874345
73.67338742380853, 0.003592319082902362
73.85779648380718, 0.008892859484624704
