32.46545260889283, 1.0573728892295542
32.652460062872336, 1.0574702774984988
32.85132992997741, 1.0581398218474904
33.03205728289044, 1.0604406197012983
33.14440131307962, 1.0543051587578103
33.25837351761937, 1.0616904358194164
33.437472696181835, 1.060270190230646
33.64332045336077, 1.0638005149798755
33.82823454031812, 1.0668743322184286
34.02361546238626, 1.0747566952361045
34.17829202569021, 1.0963444281854149
34.194573769195884, 1.079869579355678
34.275982486724274, 1.1054339999535459
34.278308450082235, 1.1234508297082335
34.292264230229954, 1.0900953475948252
34.331340414643584, 1.1449736371449146
34.36553207600551, 1.1650843146819039
34.36553207600551, 1.1531542517362323
34.370416599057215, 1.2018970803428335
34.37367294775835, 1.182127261747149
34.38995469126402, 1.1139554734861683
34.414377306522546, 1.2630812603070636
34.414377306522546, 1.2494469026548674
34.414377306522546, 1.2358125450026713
34.414377306522546, 1.2221781873504751
34.414377306522546, 1.211100271758066
34.414377306522546, 1.1309984205514134
34.424844141633336, 1.281706766742653
34.463222537039584, 1.3551131744593874
34.463222537039584, 1.3414788168071914
34.463222537039584, 1.3278444591549952
34.463222537039584, 1.3142101015027992
34.463222537039584, 1.300575743850603
34.47136340879242, 1.3724401706423868
34.4876451522981, 1.1940573246928206
34.4876451522981, 1.1804229670406245
34.4876451522981, 1.162527872622117
34.512067767556616, 1.4045377209485985
34.512067767556616, 1.3909033632964023
34.522534602667406, 1.4234066980565485
34.57556656722876, 1.4422026339627902
34.609758228590685, 1.2681941444266371
34.609758228590685, 1.254559786774441
34.609758228590685, 1.2264389241167863
34.61464275164239, 1.2397324228276776
34.62441179774579, 1.284044085197315
34.63418084384921, 1.3917555106496646
34.65046258735488, 1.2929064176712426
34.658603459107724, 1.3610782059322233
34.658603459107724, 1.347443848280027
34.658603459107724, 1.333809490627831
34.658603459107724, 1.3201751329756348
34.658603459107724, 1.3065407753234388
34.674885202613396, 1.3781211529974684
34.68302607436624, 1.4008450824177954
34.69279512046965, 1.4190242259540569
34.707448689624755, 1.439475762432351
34.741640350986685, 1.192693888927601
34.76443479189463, 1.211100271758066
34.780716535400316, 1.2724548811929484
34.780716535400316, 1.2565481305987196
34.780716535400316, 1.2429137729465234
34.780716535400316, 1.3610782059322233
34.780716535400316, 1.347443848280027
34.780716535400316, 1.333809490627831
34.780716535400316, 1.3201751329756348
34.780716535400316, 1.3065407753234388
34.780716535400316, 1.2929064176712426
34.80513915065883, 1.2289953661765731
34.80513915065883, 1.1608235779155927
34.80513915065883, 1.1471892202633964
34.80513915065883, 1.1335548626112002
34.80513915065883, 1.1203465786356352
34.81328002241167, 1.1781505740985918
34.862125252928706, 1.103161607011513
34.87840699643438, 1.2145088611711148
34.87840699643438, 1.2008745035189188
34.92725222695142, 1.1770143776275754
34.92725222695142, 1.1633800199753794
34.92725222695142, 1.1497456623231832
34.92725222695142, 1.136111304670987
34.95167484220994, 1.1190683576057419
34.95516378724687, 1.088877994233022
35.008660944479814, 1.0693597619987767
35.09821053376104, 1.079869579355678
35.20636782990591, 1.0642874563245968
35.39128191686326, 1.060270190230646
35.586662838931396, 1.060270190230646
35.78204376099954, 1.060270190230646
35.97742468306768, 1.0609093007455928
36.176294550172756, 1.0635570443075146
36.22165083565286, 1.0577137481708592
36.37865336231476, 1.0659917510311212
36.53914483401359, 1.0699278602342852
71.58559772998657, 1.063678779643695
71.78097865205471, 1.0589919692007526
71.97147505107117, 1.0573728892295542
72.18802223969666, 1.0571456499353513
72.36712141825913, 1.056861600817597
72.55203550521648, 1.0582006895155804
72.76835009750621, 1.061365808256269
72.92884156920505, 1.0616904358194164
72.95326418446356, 1.0758928917071209
73.06142148060843, 1.09569517305912
73.16492685003738, 1.0750407443538588
73.19749033704875, 1.1003211158339723
73.22191295230726, 1.086686758181776
73.30332166983567, 1.0642468778792031
73.40101213086973, 1.0679395164100063
73.50684346365662, 1.0588499446418758
73.66966089871343, 1.060270190230646
73.79991484675884, 1.0554413552288266
73.90574617954576, 1.056861600817597
