32.31403239429002, 0.030876187489838003
32.50941331635816, 0.030876187489838003
32.7047942384263, 0.030876187489838003
32.90017516049444, 0.030876187489838003
33.09555608256259, 0.030876187489838003
33.29093700463073, 0.030876187489838003
33.496784761809664, 0.03099792282601843
33.68169884876701, 0.030876187489838003
33.87707977083515, 0.03151529800478459
34.0724606929033, 0.036628182124358144
34.24341899971292, 0.03684121896267367
34.26784161497144, 0.04408447146540295
34.278308450082235, 0.061431756871098475
34.331340414643584, 0.08217545815622573
34.35739120425267, 0.0953553372200151
34.375998911116305, 0.11256059806683405
34.4062364347697, 0.06070134485401679
34.414377306522546, 0.15955043783243905
34.414377306522546, 0.1459160801802426
34.414377306522546, 0.1322817225280466
34.42251817827538, 0.17716148313319202
34.424844141633336, 0.23405246357479648
34.43879992178106, 0.07944858662578635
34.463222537039584, 0.38536948644693725
34.463222537039584, 0.37173512879474124
34.463222537039584, 0.35810077114254524
34.463222537039584, 0.3444664134903488
34.463222537039584, 0.3308320558381528
34.463222537039584, 0.3171976981859568
34.463222537039584, 0.30356334053376033
34.463222537039584, 0.2899289828815643
34.463222537039584, 0.2762946252293683
34.463222537039584, 0.2626602675771723
34.463222537039584, 0.1944884793161914
34.47136340879242, 0.4021283843944281
34.47136340879242, 0.25101425374925457
34.47136340879242, 0.21124737726368226
34.4876451522981, 0.09819582839755636
34.50392689580377, 0.4168989385176407
34.512067767556616, 0.5515382203330779
34.512067767556616, 0.5379038626808814
34.512067767556616, 0.5242695050286854
34.512067767556616, 0.5106351473764894
34.512067767556616, 0.4970007897242934
34.512067767556616, 0.48336643207209695
34.512067767556616, 0.46973207441990095
34.512067767556616, 0.45609771676770494
34.512067767556616, 0.4424633591155085
34.512067767556616, 0.4288290014633125
34.51496234376272, 0.6506307839838605
34.52020863930946, 0.11807926664034252
34.522534602667406, 0.5702854621048474
34.53649038281513, 0.23283511021299308
34.53649038281513, 0.17829767960420861
34.53649038281513, 0.1646633219520126
34.53649038281513, 0.15102896429981616
34.53649038281513, 0.13739460664762015
34.56091299807365, 0.6316400715397301
34.56091299807365, 0.6180057138875341
34.56091299807365, 0.6043713562353377
34.56091299807365, 0.5907369985831417
34.62441179774579, 0.6770085708313007
34.653718936056016, 0.2880542587043875
34.658603459107724, 0.38536948644693725
34.658603459107724, 0.37173512879474124
34.658603459107724, 0.35810077114254524
34.658603459107724, 0.3444664134903488
34.658603459107724, 0.3308320558381528
34.658603459107724, 0.3171976981859568
34.658603459107724, 0.30356334053376033
34.66674433086057, 0.27601057611161384
34.67325702826284, 0.4012194272176153
34.68302607436624, 0.2541387940445494
34.69930781787192, 0.4134903491045918
34.707448689624755, 0.5626161359254871
34.707448689624755, 0.5489817782732911
34.707448689624755, 0.5353474206210946
34.707448689624755, 0.5217130629688986
34.707448689624755, 0.5080787053167026
34.707448689624755, 0.4944443476645066
34.707448689624755, 0.4808099900123102
34.707448689624755, 0.46717563236011417
34.707448689624755, 0.45354127470791816
34.707448689624755, 0.4399069170557217
34.707448689624755, 0.4262725594035257
34.707448689624755, 0.6299357768332055
34.707448689624755, 0.6163014191810094
34.71233321267646, 0.5784660766961651
34.7155895613776, 0.6475468221339589
34.73187130488327, 0.6032351597643215
34.73187130488327, 0.5907369985831417
34.73187130488327, 0.6691345550832692
34.79048558150372, 0.15784614312591438
34.80513915065883, 0.21323572108796096
34.80513915065883, 0.19960136343576496
34.80513915065883, 0.18596700578356895
34.80513915065883, 0.17233264813137295
34.80513915065883, 0.3998559914523958
34.80513915065883, 0.3862216338001998
34.80513915065883, 0.37258727614800335
34.80513915065883, 0.35895291849580735
34.81560598576962, 0.23186122752355054
34.82956176591735, 0.3430461679015786
34.82956176591735, 0.3294118102493826
34.82956176591735, 0.3157774525971866
34.82956176591735, 0.30214309494499014
34.82956176591735, 0.28850873729279414
34.82956176591735, 0.27487437964059813
34.82956176591735, 0.2612400219884017
34.82956176591735, 0.4543934220611803
34.82956176591735, 0.44075906440898427
34.82956176591735, 0.4271247067567878
34.82956176591735, 0.4134903491045918
34.84584350942302, 0.24760566433620568
34.85398438117586, 0.12376024899542415
34.85398438117586, 0.1101258913432277
34.85398438117586, 0.0964915336910317
34.87026612468154, 0.14080319606066904
34.9028296116929, 0.06751852368011502
34.91748318084801, 0.08353889392144564
34.92725222695142, 0.2294265207999442
34.92725222695142, 0.21579216314774774
34.92725222695142, 0.20215780549555173
34.92725222695142, 0.18852344784335573
34.92725222695142, 0.17488909019115972
34.92725222695142, 0.16125473253896327
34.959815713962776, 0.05104367485037775
34.976097457468455, 0.14762037488676727
34.976097457468455, 0.13398601723457126
34.976097457468455, 0.12035165958237481
34.976097457468455, 0.10671730193017881
35.02494268798549, 0.08626576545188458
35.049365303244, 0.06751852368011502
35.06564704674969, 0.040533857493477043
35.23009265615704, 0.03786379578658838
35.308245024984295, 0.030024040136575447
35.488972377897326, 0.030876187489838003
35.684353299965466, 0.030876187489838003
35.87973422203361, 0.030876187489838003
36.07511514410175, 0.030876187489838003
36.2704960661699, 0.03684121896267367
36.29491868142841, 0.026615450723526557
36.417031757721006, 0.03939766102246045
70.8089585647657, 0.031387475901794915
71.01410853293726, 0.031387475901794915
71.18018231669518, 0.031387475901794915
71.37974997280763, 0.03099792282601843
71.58071320693487, 0.031387475901794915
71.78097865205471, 0.031728334843100114
71.98124409717455, 0.031387475901794915
72.18802223969666, 0.030876187489838003
72.36712141825913, 0.030876187489838003
72.56250234032728, 0.03151529800478459
72.75788326239542, 0.03620210844772709
72.93641382810972, 0.04471523471070471
73.02014850899607, 0.05295176045472161
73.07537726075616, 0.05834959236290116
73.15911194164251, 0.06317752869386872
73.31960341334133, 0.053923845802460235
73.41509708717668, 0.04434011567138185
73.52312520716231, 0.04024980837572256
73.65337915520774, 0.03201238396085415
73.83247833377021, 0.030876187489838003
74.02785925583835, 0.030663150651522475
